* Measurement data measured by REW V5.20.13
* Source: Microphone (USB Sound Device        ), MICROPHONE (Master Volume), L, volume: 0,250
* Format: 32768-point 1/48 octave RTA using Rectangular window and 32 averages 
* Dated: 20:34:46 26-09-2023
* REW Settings:
*  C-weighting compensation: Off
*  Target level: 75.0 dB
* Note: ; 32768-point 1/48 octave RTA using Rectangular window and 32 averages Input RMS 80,89 dB 77,2 dB C, 74,1 dB A 77,9 dB 22 - 22k UNW 15,4 dB >22k  
* Measurement: Audiosense DT200 L
* Smoothing: 1/12 octave
* Frequency Step: 1/48 octave
* Start Frequency: 3.700 Hz
*
* Freq(Hz) SPL(dB)
3.700000 88.012
3.750000 88.012
3.820000 88.012
3.870000 88.012
3.950000 88.012
4.000000 88.012
4.060000 88.012
4.120000 88.012
4.180000 88.012
4.250000 88.012
4.310000 88.012
4.370000 88.012
4.440000 88.012
4.500000 88.012
4.550000 88.012
4.620000 88.012
4.680000 88.012
4.750000 88.012
4.820000 88.011
4.870000 88.008
4.940000 88.000
5.000000 87.980
5.080000 87.922
5.150000 87.844
5.220000 87.782
5.300000 87.748
5.380000 87.736
5.450000 87.733
5.520000 87.732
5.600000 87.731
5.700000 87.731
5.800000 87.731
5.900000 87.731
6.000000 87.731
6.080000 87.732
6.150000 87.733
6.220000 87.735
6.300000 87.743
6.400000 87.775
6.500000 87.861
6.600000 88.018
6.700000 88.164
6.800000 88.237
6.900000 88.263
7.000000 88.271
7.100000 88.274
7.200000 88.274
7.300000 88.275
7.400000 88.275
7.500000 88.276
7.620000 88.279
7.750000 88.295
7.880000 88.349
8.000000 88.473
8.120000 88.653
8.250000 88.792
8.380000 88.849
8.500000 88.866
8.620000 88.871
8.750000 88.873
8.850000 88.874
9.000000 88.878
9.120000 88.888
9.250000 88.920
9.380000 89.000
9.500000 89.132
9.620000 89.278
9.750000 89.381
9.880000 89.428
10.000000 89.445
10.150000 89.452
10.300000 89.453
10.440000 89.451
10.600000 89.443
10.750000 89.419
10.900000 89.365
11.060000 89.275
11.200000 89.208
11.380000 89.164
11.500000 89.152
11.720000 89.142
11.800000 89.137
12.060000 89.088
12.200000 89.010
12.410000 88.760
12.500000 88.616
12.650000 88.410
12.800000 88.286
13.150000 88.194
13.200000 88.189
13.400000 88.164
13.600000 88.106
13.800000 87.983
14.000000 87.821
14.300000 87.680
14.500000 87.651
14.750000 87.648
15.000000 87.675
15.250000 87.749
15.500000 87.850
15.750000 87.909
16.000000 87.921
16.250000 87.886
16.500000 87.760
16.750000 87.456
17.000000 87.008
17.250000 86.688
17.500000 86.590
17.750000 86.703
18.000000 87.070
18.250000 87.663
18.500000 88.195
18.750000 88.488
19.000000 88.640
19.250000 88.778
19.500000 89.001
19.750000 89.330
20.000000 89.638
20.299999 89.825
20.600000 89.836
20.900000 89.675
21.200001 89.305
21.400000 88.990
21.799999 88.528
22.000000 88.392
22.400000 88.146
22.700001 87.893
23.000000 87.659
23.299999 87.532
23.600000 87.508
24.000000 87.601
24.299999 87.726
24.700001 87.836
25.000000 87.839
25.400000 87.731
25.799999 87.530
26.200001 87.378
26.500000 87.327
26.900000 87.316
27.200001 87.332
27.600000 87.366
28.000000 87.418
28.500000 87.531
29.000000 87.647
29.500000 87.685
30.000000 87.661
30.400000 87.625
30.700001 87.603
31.100000 87.579
31.500000 87.552
32.000000 87.508
32.500000 87.445
33.000000 87.340
33.500000 87.215
34.000000 87.082
34.500000 86.914
35.000000 86.784
35.500000 86.771
36.000000 86.870
36.500000 87.014
37.000000 87.163
37.500000 87.297
38.200001 87.307
38.700001 87.161
39.500000 86.934
40.000000 86.906
40.599998 86.958
41.200001 87.020
41.799999 87.058
42.500000 87.039
43.099998 86.947
43.700001 86.848
44.400002 86.817
45.000000 86.865
45.500000 86.943
46.200001 87.069
46.799999 87.099
47.500000 86.970
48.200001 86.713
48.700001 86.516
49.400002 86.272
50.000000 86.163
50.799999 86.171
51.500000 86.217
52.200001 86.257
53.000000 86.325
53.799999 86.437
54.500000 86.543
55.200001 86.622
56.000000 86.614
57.000000 86.487
58.000000 86.414
59.000000 86.386
60.000000 86.368
60.799999 86.364
61.500000 86.340
62.200001 86.274
63.000000 86.204
64.000000 86.229
65.000000 86.313
66.000000 86.362
67.000000 86.347
68.000000 86.300
69.000000 86.244
70.000000 86.165
71.000000 86.035
72.000000 85.918
73.000000 85.892
74.000000 85.950
75.000000 86.020
76.199997 86.045
77.500000 86.011
78.800003 85.903
80.000000 85.787
81.199997 85.746
82.500000 85.774
83.800003 85.766
85.000000 85.735
86.199997 85.794
87.500000 85.875
88.500000 85.813
90.000000 85.580
91.199997 85.432
92.500000 85.355
93.800003 85.360
95.000000 85.403
96.199997 85.417
97.500000 85.369
98.800003 85.291
100.000000 85.252
101.500000 85.251
103.000000 85.241
104.400002 85.250
106.000000 85.236
107.500000 85.121
109.000000 84.978
110.599998 84.886
112.000000 84.856
113.800003 84.871
115.000000 84.901
117.199997 84.953
118.000000 84.954
120.599998 84.837
122.000000 84.740
124.099998 84.615
125.000000 84.583
126.500000 84.542
128.000000 84.473
131.500000 84.407
132.000000 84.428
134.000000 84.501
136.000000 84.464
138.000000 84.382
140.000000 84.326
143.000000 84.308
145.000000 84.322
147.500000 84.269
150.000000 84.170
152.500000 84.040
155.000000 83.931
157.500000 83.878
160.000000 83.851
162.500000 83.817
165.000000 83.805
167.500000 83.756
170.000000 83.655
172.500000 83.566
175.000000 83.499
177.500000 83.419
180.000000 83.387
182.500000 83.425
185.000000 83.442
187.500000 83.365
190.000000 83.248
192.500000 83.176
195.000000 83.171
197.500000 83.202
200.000000 83.211
203.000000 83.143
206.000000 83.021
209.000000 82.889
212.000000 82.796
214.000000 82.776
218.000000 82.781
220.000000 82.774
224.000000 82.731
227.000000 82.676
230.000000 82.608
233.000000 82.570
236.000000 82.554
240.000000 82.539
243.000000 82.520
247.000000 82.475
250.000000 82.444
254.000000 82.424
258.000000 82.383
262.000000 82.314
265.000000 82.254
269.000000 82.171
272.000000 82.135
276.000000 82.112
280.000000 82.079
285.000000 82.030
290.000000 81.984
295.000000 81.967
300.000000 81.919
304.000000 81.854
307.000000 81.814
311.000000 81.792
315.000000 81.789
320.000000 81.775
325.000000 81.741
330.000000 81.697
335.000000 81.631
340.000000 81.526
345.000000 81.415
350.000000 81.322
355.000000 81.241
360.000000 81.165
365.000000 81.103
370.000000 81.045
375.000000 80.986
382.000000 80.920
387.000000 80.887
395.000000 80.848
400.000000 80.821
406.000000 80.784
412.000000 80.739
418.000000 80.691
425.000000 80.612
431.000000 80.528
437.000000 80.466
444.000000 80.422
450.000000 80.386
455.000000 80.353
462.000000 80.298
468.000000 80.249
475.000000 80.217
482.000000 80.189
487.000000 80.141
494.000000 80.052
500.000000 79.985
508.000000 79.928
515.000000 79.901
522.000000 79.898
530.000000 79.877
538.000000 79.829
545.000000 79.774
552.000000 79.708
560.000000 79.632
570.000000 79.563
580.000000 79.510
590.000000 79.450
600.000000 79.369
608.000000 79.319
615.000000 79.299
622.000000 79.284
630.000000 79.268
640.000000 79.256
650.000000 79.225
660.000000 79.163
670.000000 79.068
680.000000 78.985
690.000000 78.916
700.000000 78.855
710.000000 78.813
720.000000 78.785
730.000000 78.762
740.000000 78.722
750.000000 78.680
762.000000 78.643
775.000000 78.645
788.000000 78.648
800.000000 78.611
812.000000 78.558
825.000000 78.519
838.000000 78.508
850.000000 78.520
862.000000 78.546
875.000000 78.586
885.000000 78.618
900.000000 78.634
912.000000 78.630
925.000000 78.616
938.000000 78.610
950.000000 78.621
962.000000 78.644
975.000000 78.685
988.000000 78.740
1000.000000 78.794
1015.000000 78.857
1030.000000 78.909
1044.000000 78.955
1060.000000 79.004
1075.000000 79.050
1090.000000 79.101
1106.000000 79.165
1120.000000 79.227
1138.000000 79.315
1150.000000 79.376
1172.000000 79.480
1180.000000 79.517
1206.000000 79.633
1220.000000 79.693
1241.000000 79.762
1250.000000 79.778
1265.000000 79.793
1280.000000 79.816
1315.000000 79.911
1320.000000 79.921
1340.000000 79.956
1360.000000 79.985
1380.000000 80.006
1400.000000 80.025
1430.000000 80.070
1450.000000 80.119
1475.000000 80.191
1500.000000 80.246
1525.000000 80.280
1550.000000 80.324
1575.000000 80.402
1600.000000 80.486
1625.000000 80.560
1650.000000 80.650
1675.000000 80.740
1700.000000 80.813
1725.000000 80.881
1750.000000 80.957
1775.000000 81.037
1800.000000 81.125
1825.000000 81.220
1850.000000 81.325
1875.000000 81.443
1900.000000 81.562
1925.000000 81.687
1950.000000 81.817
1975.000000 81.948
2000.000000 82.081
2030.000000 82.247
2060.000000 82.407
2090.000000 82.569
2120.000000 82.749
2140.000000 82.884
2180.000000 83.186
2200.000000 83.345
2240.000000 83.662
2270.000000 83.898
2300.000000 84.134
2330.000000 84.372
2360.000000 84.611
2400.000000 84.915
2430.000000 85.136
2470.000000 85.435
2500.000000 85.662
2540.000000 85.948
2580.000000 86.212
2620.000000 86.452
2650.000000 86.622
2690.000000 86.827
2720.000000 86.956
2760.000000 87.093
2800.000000 87.193
2850.000000 87.256
2900.000000 87.255
2950.000000 87.183
3000.000000 87.050
3040.000000 86.914
3070.000000 86.800
3110.000000 86.638
3150.000000 86.464
3200.000000 86.233
3250.000000 86.000
3300.000000 85.783
3350.000000 85.588
3400.000000 85.413
3450.000000 85.249
3500.000000 85.089
3550.000000 84.933
3600.000000 84.782
3650.000000 84.632
3700.000000 84.490
3750.000000 84.359
3820.000000 84.194
3870.000000 84.092
3950.000000 83.962
4000.000000 83.894
4060.000000 83.822
4120.000000 83.757
4180.000000 83.698
4250.000000 83.652
4310.000000 83.627
4370.000000 83.590
4440.000000 83.534
4500.000000 83.478
4550.000000 83.430
4620.000000 83.349
4680.000000 83.257
4750.000000 83.120
4820.000000 82.950
4870.000000 82.810
4940.000000 82.592
5000.000000 82.393
5080.000000 82.118
5150.000000 81.877
5220.000000 81.662
5300.000000 81.476
5380.000000 81.386
5450.000000 81.410
5520.000000 81.535
5600.000000 81.763
5700.000000 82.055
5800.000000 82.191
5900.000000 82.061
6000.000000 81.671
6080.000000 81.237
6150.000000 80.818
6220.000000 80.403
6300.000000 79.968
6400.000000 79.517
6500.000000 79.185
6600.000000 78.962
6700.000000 78.844
6800.000000 78.843
6900.000000 78.967
7000.000000 79.230
7100.000000 79.663
7200.000000 80.261
7300.000000 80.966
7400.000000 81.749
7500.000000 82.598
7620.000000 83.662
7750.000000 84.749
7880.000000 85.566
8000.000000 85.911
8120.000000 85.781
8250.000000 85.129
8380.000000 84.080
8500.000000 82.927
8620.000000 81.742
8750.000000 80.528
8850.000000 79.688
9000.000000 78.609
9120.000000 77.903
9250.000000 77.287
9380.000000 76.810
9500.000000 76.475
9620.000000 76.230
9750.000000 76.054
9880.000000 75.949
10000.000000 75.894
10150.000000 75.843
10300.000000 75.780
10440.000000 75.689
10600.000000 75.554
10750.000000 75.420
10900.000000 75.306
11060.000000 75.244
11200.000000 75.253
11380.000000 75.342
11500.000000 75.429
11720.000000 75.564
11800.000000 75.587
12060.000000 75.542
12200.000000 75.454
12410.000000 75.285
12500.000000 75.215
12650.000000 75.118
12800.000000 75.039
13150.000000 74.788
13200.000000 74.723
13400.000000 74.338
13600.000000 73.705
13800.000000 72.824
14000.000000 71.778
14300.000000 70.195
14500.000000 69.371
14750.000000 68.883
15000.000000 69.200
15250.000000 70.290
15500.000000 71.874
15750.000000 73.599
16000.000000 75.180
16250.000000 76.432
16500.000000 77.251
16750.000000 77.607
17000.000000 77.532
17250.000000 77.093
17500.000000 76.374
17750.000000 75.469
18000.000000 74.464
18250.000000 73.428
18500.000000 72.427
18750.000000 71.567
19000.000000 70.958
19250.000000 70.616
19500.000000 70.424
19750.000000 70.202
20000.000000 69.774
20300.000000 68.791
20600.000000 67.177
20900.000000 64.910
21200.000000 62.033
21400.000000 59.812
21800.000000 54.804
22000.000000 52.133
22400.000000 46.976
22700.000000 43.943
23000.000000 42.130
23300.000000 41.354
23600.000000 41.102

