* Measurement data measured by REW V5.20.13
* Source: Microphone (USB Sound Device        ), MICROPHONE (Master Volume), R, volume: 0,250
* Format: 32768-point 1/48 octave RTA using Rectangular window and 32 averages 
* Dated: 20:37:35 26-09-2023
* REW Settings:
*  C-weighting compensation: Off
*  Target level: 75.0 dB
* Note: ; 32768-point 1/48 octave RTA using Rectangular window and 32 averages Input RMS 80,27 dB 76,6 dB C, 74,1 dB A 77,4 dB 22 - 22k UNW 14,5 dB >22k  
* Measurement: Audiosense DT200 R
* Smoothing: 1/12 octave
* Frequency Step: 1/48 octave
* Start Frequency: 3.700 Hz
*
* Freq(Hz) SPL(dB)
3.700000 84.142
3.750000 84.142
3.820000 84.142
3.870000 84.142
3.950000 84.142
4.000000 84.142
4.060000 84.142
4.120000 84.142
4.180000 84.142
4.250000 84.142
4.310000 84.142
4.370000 84.142
4.440000 84.142
4.500000 84.142
4.550000 84.142
4.620000 84.142
4.680000 84.142
4.750000 84.142
4.820000 84.142
4.870000 84.143
4.940000 84.146
5.000000 84.152
5.080000 84.172
5.150000 84.196
5.220000 84.216
5.300000 84.226
5.380000 84.230
5.450000 84.231
5.520000 84.231
5.600000 84.231
5.700000 84.231
5.800000 84.231
5.900000 84.231
6.000000 84.232
6.080000 84.232
6.150000 84.233
6.220000 84.237
6.300000 84.250
6.400000 84.301
6.500000 84.437
6.600000 84.681
6.700000 84.902
6.800000 85.012
6.900000 85.052
7.000000 85.064
7.100000 85.068
7.200000 85.068
7.300000 85.069
7.400000 85.069
7.500000 85.070
7.620000 85.072
7.750000 85.084
7.880000 85.127
8.000000 85.224
8.120000 85.367
8.250000 85.478
8.380000 85.523
8.500000 85.537
8.620000 85.541
8.750000 85.543
8.850000 85.544
9.000000 85.549
9.120000 85.564
9.250000 85.610
9.380000 85.724
9.500000 85.909
9.620000 86.113
9.750000 86.254
9.880000 86.319
10.000000 86.342
10.150000 86.350
10.300000 86.350
10.440000 86.340
10.600000 86.300
10.750000 86.188
10.900000 85.927
11.060000 85.459
11.200000 85.081
11.380000 84.821
11.500000 84.751
11.720000 84.717
11.800000 84.722
12.060000 84.822
12.200000 84.985
12.410000 85.450
12.500000 85.687
12.650000 85.992
12.800000 86.160
13.150000 86.276
13.200000 86.282
13.400000 86.308
13.600000 86.365
13.800000 86.479
14.000000 86.621
14.300000 86.737
14.500000 86.758
14.750000 86.751
15.000000 86.697
15.250000 86.554
15.500000 86.348
15.750000 86.215
16.000000 86.164
16.250000 86.151
16.500000 86.155
16.750000 86.172
17.000000 86.196
17.250000 86.211
17.500000 86.212
17.750000 86.198
18.000000 86.158
18.250000 86.085
18.500000 86.011
18.750000 85.972
19.000000 85.966
19.250000 85.996
19.500000 86.074
19.750000 86.203
20.000000 86.331
20.299999 86.419
20.600000 86.447
20.900000 86.440
21.200001 86.409
21.400000 86.382
21.799999 86.341
22.000000 86.323
22.400000 86.266
22.700001 86.194
23.000000 86.128
23.299999 86.093
23.600000 86.088
24.000000 86.116
24.299999 86.154
24.700001 86.185
25.000000 86.178
25.400000 86.119
25.799999 86.018
26.200001 85.949
26.500000 85.937
26.900000 85.966
27.200001 86.013
27.600000 86.080
28.000000 86.143
28.500000 86.250
29.000000 86.356
29.500000 86.403
30.000000 86.409
30.400000 86.400
30.700001 86.387
31.100000 86.353
31.500000 86.295
32.000000 86.216
32.500000 86.177
33.000000 86.171
33.500000 86.158
34.000000 86.098
34.500000 85.982
35.000000 85.873
35.500000 85.832
36.000000 85.844
36.500000 85.862
37.000000 85.850
37.500000 85.805
38.200001 85.706
38.700001 85.614
39.500000 85.543
40.000000 85.607
40.599998 85.758
41.200001 85.865
41.799999 85.884
42.500000 85.845
43.099998 85.797
43.700001 85.754
44.400002 85.718
45.000000 85.710
45.500000 85.731
46.200001 85.786
46.799999 85.771
47.500000 85.605
48.200001 85.337
48.700001 85.168
49.400002 85.005
50.000000 84.952
50.799999 84.984
51.500000 85.031
52.200001 85.061
53.000000 85.076
53.799999 85.098
54.500000 85.155
55.200001 85.234
56.000000 85.241
57.000000 85.142
58.000000 85.151
59.000000 85.203
60.000000 85.205
60.799999 85.182
61.500000 85.131
62.200001 85.042
63.000000 84.947
64.000000 84.927
65.000000 84.955
66.000000 84.974
67.000000 84.973
68.000000 84.948
69.000000 84.928
70.000000 84.901
71.000000 84.808
72.000000 84.703
73.000000 84.664
74.000000 84.694
75.000000 84.741
76.199997 84.751
77.500000 84.703
78.800003 84.631
80.000000 84.543
81.199997 84.473
82.500000 84.450
83.800003 84.430
85.000000 84.400
86.199997 84.442
87.500000 84.494
88.500000 84.437
90.000000 84.239
91.199997 84.108
92.500000 84.048
93.800003 84.078
95.000000 84.132
96.199997 84.149
97.500000 84.108
98.800003 84.034
100.000000 83.990
101.500000 83.974
103.000000 83.935
104.400002 83.906
106.000000 83.877
107.500000 83.775
109.000000 83.653
110.599998 83.594
112.000000 83.594
113.800003 83.616
115.000000 83.623
117.199997 83.626
118.000000 83.621
120.599998 83.526
122.000000 83.446
124.099998 83.339
125.000000 83.310
126.500000 83.270
128.000000 83.211
131.500000 83.216
132.000000 83.244
134.000000 83.322
136.000000 83.262
138.000000 83.145
140.000000 83.064
143.000000 83.048
145.000000 83.065
147.500000 83.037
150.000000 82.947
152.500000 82.801
155.000000 82.701
157.500000 82.670
160.000000 82.666
162.500000 82.649
165.000000 82.645
167.500000 82.610
170.000000 82.533
172.500000 82.466
175.000000 82.407
177.500000 82.323
180.000000 82.280
182.500000 82.303
185.000000 82.319
187.500000 82.252
190.000000 82.154
192.500000 82.105
195.000000 82.133
197.500000 82.188
200.000000 82.204
203.000000 82.145
206.000000 82.030
209.000000 81.898
212.000000 81.803
214.000000 81.787
218.000000 81.816
220.000000 81.829
224.000000 81.836
227.000000 81.813
230.000000 81.762
233.000000 81.729
236.000000 81.715
240.000000 81.693
243.000000 81.668
247.000000 81.625
250.000000 81.601
254.000000 81.584
258.000000 81.550
262.000000 81.495
265.000000 81.447
269.000000 81.368
272.000000 81.328
276.000000 81.309
280.000000 81.287
285.000000 81.250
290.000000 81.236
295.000000 81.256
300.000000 81.234
304.000000 81.190
307.000000 81.164
311.000000 81.145
315.000000 81.134
320.000000 81.117
325.000000 81.085
330.000000 81.049
335.000000 81.003
340.000000 80.923
345.000000 80.839
350.000000 80.776
355.000000 80.705
360.000000 80.623
365.000000 80.550
370.000000 80.484
375.000000 80.426
382.000000 80.385
387.000000 80.381
395.000000 80.360
400.000000 80.313
406.000000 80.256
412.000000 80.217
418.000000 80.178
425.000000 80.098
431.000000 80.016
437.000000 79.962
444.000000 79.925
450.000000 79.896
455.000000 79.877
462.000000 79.846
468.000000 79.813
475.000000 79.791
482.000000 79.760
487.000000 79.713
494.000000 79.632
500.000000 79.572
508.000000 79.524
515.000000 79.503
522.000000 79.498
530.000000 79.482
538.000000 79.450
545.000000 79.402
552.000000 79.329
560.000000 79.249
570.000000 79.186
580.000000 79.141
590.000000 79.100
600.000000 79.042
608.000000 79.010
615.000000 78.995
622.000000 78.976
630.000000 78.951
640.000000 78.929
650.000000 78.901
660.000000 78.852
670.000000 78.776
680.000000 78.710
690.000000 78.651
700.000000 78.602
710.000000 78.575
720.000000 78.563
730.000000 78.549
740.000000 78.520
750.000000 78.483
762.000000 78.440
775.000000 78.432
788.000000 78.429
800.000000 78.396
812.000000 78.349
825.000000 78.317
838.000000 78.324
850.000000 78.350
862.000000 78.377
875.000000 78.414
885.000000 78.445
900.000000 78.463
912.000000 78.463
925.000000 78.455
938.000000 78.455
950.000000 78.472
962.000000 78.495
975.000000 78.533
988.000000 78.590
1000.000000 78.648
1015.000000 78.714
1030.000000 78.764
1044.000000 78.811
1060.000000 78.873
1075.000000 78.940
1090.000000 79.013
1106.000000 79.090
1120.000000 79.152
1138.000000 79.240
1150.000000 79.301
1172.000000 79.404
1180.000000 79.443
1206.000000 79.574
1220.000000 79.643
1241.000000 79.726
1250.000000 79.749
1265.000000 79.774
1280.000000 79.805
1315.000000 79.909
1320.000000 79.922
1340.000000 79.968
1360.000000 80.004
1380.000000 80.026
1400.000000 80.035
1430.000000 80.066
1450.000000 80.119
1475.000000 80.200
1500.000000 80.267
1525.000000 80.324
1550.000000 80.387
1575.000000 80.468
1600.000000 80.556
1625.000000 80.639
1650.000000 80.743
1675.000000 80.854
1700.000000 80.945
1725.000000 81.025
1750.000000 81.112
1775.000000 81.205
1800.000000 81.309
1825.000000 81.416
1850.000000 81.533
1875.000000 81.666
1900.000000 81.806
1925.000000 81.952
1950.000000 82.102
1975.000000 82.252
2000.000000 82.406
2030.000000 82.595
2060.000000 82.774
2090.000000 82.948
2120.000000 83.146
2140.000000 83.300
2180.000000 83.644
2200.000000 83.822
2240.000000 84.171
2270.000000 84.430
2300.000000 84.691
2330.000000 84.948
2360.000000 85.202
2400.000000 85.519
2430.000000 85.745
2470.000000 86.040
2500.000000 86.255
2540.000000 86.515
2580.000000 86.743
2620.000000 86.929
2650.000000 87.049
2690.000000 87.179
2720.000000 87.243
2760.000000 87.284
2800.000000 87.283
2850.000000 87.218
2900.000000 87.087
2950.000000 86.897
3000.000000 86.665
3040.000000 86.463
3070.000000 86.308
3110.000000 86.102
3150.000000 85.901
3200.000000 85.654
3250.000000 85.414
3300.000000 85.182
3350.000000 84.959
3400.000000 84.747
3450.000000 84.544
3500.000000 84.349
3550.000000 84.166
3600.000000 83.998
3650.000000 83.848
3700.000000 83.723
3750.000000 83.622
3820.000000 83.512
3870.000000 83.452
3950.000000 83.389
4000.000000 83.368
4060.000000 83.362
4120.000000 83.370
4180.000000 83.385
4250.000000 83.423
4310.000000 83.465
4370.000000 83.497
4440.000000 83.513
4500.000000 83.505
4550.000000 83.482
4620.000000 83.413
4680.000000 83.314
4750.000000 83.143
4820.000000 82.914
4870.000000 82.717
4940.000000 82.402
5000.000000 82.103
5080.000000 81.678
5150.000000 81.301
5220.000000 80.947
5300.000000 80.606
5380.000000 80.376
5450.000000 80.302
5520.000000 80.357
5600.000000 80.548
5700.000000 80.848
5800.000000 81.015
5900.000000 80.915
6000.000000 80.552
6080.000000 80.139
6150.000000 79.738
6220.000000 79.338
6300.000000 78.917
6400.000000 78.474
6500.000000 78.147
6600.000000 77.932
6700.000000 77.828
6800.000000 77.846
6900.000000 77.987
7000.000000 78.261
7100.000000 78.689
7200.000000 79.293
7300.000000 80.046
7400.000000 80.920
7500.000000 81.896
7620.000000 83.124
7750.000000 84.334
7880.000000 85.139
8000.000000 85.310
8120.000000 84.869
8250.000000 83.810
8380.000000 82.372
8500.000000 80.929
8620.000000 79.532
8750.000000 78.171
8850.000000 77.257
9000.000000 76.114
9120.000000 75.383
9250.000000 74.758
9380.000000 74.283
9500.000000 73.955
9620.000000 73.718
9750.000000 73.547
9880.000000 73.441
10000.000000 73.382
10150.000000 73.332
10300.000000 73.285
10440.000000 73.232
10600.000000 73.160
10750.000000 73.084
10900.000000 73.010
11060.000000 72.942
11200.000000 72.883
11380.000000 72.787
11500.000000 72.711
11720.000000 72.509
11800.000000 72.396
12060.000000 71.857
12200.000000 71.481
12410.000000 70.880
12500.000000 70.633
12650.000000 70.262
12800.000000 69.967
13150.000000 69.655
13200.000000 69.658
13400.000000 69.804
13600.000000 70.183
13800.000000 70.837
14000.000000 71.797
14300.000000 73.813
14500.000000 75.440
14750.000000 77.518
15000.000000 79.248
15250.000000 80.247
15500.000000 80.398
15750.000000 79.964
16000.000000 79.354
16250.000000 78.771
16500.000000 78.145
16750.000000 77.359
17000.000000 76.397
17250.000000 75.307
17500.000000 74.140
17750.000000 72.931
18000.000000 71.705
18250.000000 70.484
18500.000000 69.298
18750.000000 68.226
19000.000000 67.431
19250.000000 67.096
19500.000000 67.195
19750.000000 67.434
20000.000000 67.495
20300.000000 67.100
20600.000000 66.116
20900.000000 64.530
21200.000000 62.344
21400.000000 60.561
21800.000000 56.306
22000.000000 53.902
22400.000000 48.830
22700.000000 45.204
23000.000000 42.326
23300.000000 40.618
23600.000000 39.907

